#t (s)    x (m)
0    0.20711433756805808
0.03    0.2038475499092559
0.06    0.19927404718693287
0.09    0.19339382940108896
0.12    0.18588021778584393
0.15    0.17738656987295828
0.18    0.17738656987295828
0.21    0.16758620689655174
0.24    0.15713248638838476
0.27    0.14569872958257715
0.3    0.13361161524500909
0.33    0.12152450090744103
0.36    0.10878402903811253
0.39    0.09669691470054448
0.42    0.08460980036297641
0.45    0.07350272232304901
0.48    0.07350272232304901
0.51    0.06304900181488204
0.54    0.05357531760435572
0.57    0.04540834845735028
0.6    0.03887477313974592
0.63    0.033647912885662434
0.66    0.030381125226860258
0.69    0.02874773139745917
0.72    0.02874773139745917
0.75    0.030707803992740475
0.78    0.030707803992740475
0.81    0.034627949183303086
0.84    0.039854809437386576
0.87    0.046715063520871146
0.9    0.05520871143375681
0.93    0.06468239564428313
0.96    0.0751361161524501
0.99    0.08656987295825772
1.02    0.09833030852994556
1.05    0.11074410163339383
1.08    0.11074410163339383
1.11    0.1228312159709619
1.14    0.13491833030852995
1.17    0.1466787658802178
1.2    0.1581125226860254
1.23    0.1685662431941924
1.26    0.17803992740471872
1.29    0.18620689655172415
1.32    0.19339382940108896
1.35    0.19927404718693287
1.38    0.19927404718693287
1.41    0.2038475499092559
1.44    0.20711433756805808
1.47    0.20874773139745917
1.5    0.20874773139745917
1.53    0.20711433756805808
1.56    0.20417422867513613
1.59    0.1999274047186933
1.62    0.1940471869328494
1.65    0.18686025408348458
1.68    0.18686025408348458
1.71    0.17869328493647915
1.74    0.1688929219600726
1.77    0.15843920145190563
1.8    0.14733212341197824
1.83    0.1355716878402904
1.86    0.11074410163339383
1.89    0.09865698729582578
1.92    0.08656987295825772
1.95    0.07546279491833031
1.98    0.07546279491833031
2.01    0.06500907441016335
2.04    0.055535390199637026
2.07    0.04736842105263158
2.1    0.04050816696914701
2.13    0.03528130671506352
2.16    0.03168784029038113
2.19    0.030054446460980037
2.22    0.030054446460980037
2.25    0.03168784029038113
2.28    0.03168784029038113
2.31    0.03528130671506352
2.34    0.04050816696914701
2.37    0.04704174228675136
2.4    0.05520871143375681
2.43    0.06435571687840291
2.46    0.07480943738656988
2.49    0.08591651542649728
2.52    0.09767695099818513
2.55    0.10976406533575318
2.58    0.10976406533575318
2.61    0.12185117967332125
2.64    0.13361161524500909
2.67    0.14537205081669693
2.7    0.15647912885662432
2.73    0.1669328493647913
2.76    0.17640653357531763
2.79    0.18490018148820328
2.82    0.19208711433756806
2.85    0.197967332123412
2.88    0.197967332123412
2.91    0.20254083484573504
2.94    0.2058076225045372
2.97    0.2074410163339383
3.0    0.20776769509981852
3.03    0.20646098003629765
3.06    0.2035208711433757
3.09    0.19927404718693287
3.12    0.19372050816696917
3.15    0.18686025408348458
3.18    0.18686025408348458
3.21    0.17869328493647915
3.24    0.16921960072595282
3.27    0.15876588021778584
3.3    0.14765880217785846
3.33    0.13622504537205082
3.36    0.12413793103448277
3.39    0.11172413793103449
3.42    0.09963702359346643
3.45    0.08754990925589837
3.48    0.08754990925589837
3.51    0.07644283121597097
3.54    0.065989110707804
3.57    0.056515426497277685
3.6    0.048021778584392015
3.63    0.041161524500907445
3.66    0.03593466424682396
3.69    0.032341197822141565
3.72    0.030381125226860258
3.75    0.030054446460980037
3.78    0.030054446460980037
3.81    0.03168784029038113
3.84    0.0349546279491833
3.87    0.039854809437386576
3.9    0.04638838475499093
3.93    0.05422867513611616
3.96    0.06337568058076226
3.99    0.07350272232304901
4.02    0.0842831215970962
4.05    0.09604355716878403
4.08    0.09604355716878403
4.11    0.10780399274047188
4.14    0.11989110707803993
4.17    0.131978221415608
4.2    0.14341197822141563
4.23    0.15451905626134302
4.26    0.16497277676951
4.29    0.1744464609800363
4.32    0.18294010889292198
4.35    0.19045372050816697
4.38    0.19045372050816697
4.41    0.1963339382940109
4.44    0.20123411978221417
4.47    0.20450090744101634
4.5    0.20646098003629765
4.53    0.20678765880217786
4.56    0.205480943738657
4.59    0.20286751361161526
4.62    0.19894736842105265
4.65    0.19339382940108896
4.68    0.19339382940108896
4.71    0.18653357531760437
4.74    0.17869328493647915
4.77    0.16954627949183304
4.8    0.1594192377495463
4.83    0.1483121597096189
4.86    0.13687840290381126
4.89    0.1247912885662432
4.92    0.11270417422867514
4.95    0.10061705989110709
4.98    0.10061705989110709
5.01    0.08852994555353903
5.04    0.07742286751361162
5.07    0.06696914700544465
5.1    0.05749546279491834
5.13    0.049001814882032674
5.16    0.0421415607985481
5.19    0.0365880217785844
5.22    0.032994555353902
5.25    0.031034482758620693
5.28    0.031034482758620693
5.31    0.030381125226860258
5.34    0.03201451905626135
5.37    0.03528130671506352
5.4    0.039854809437386576
5.43    0.04638838475499093
5.46    0.05422867513611616
5.49    0.06304900181488204
5.52    0.0731760435571688
5.55    0.08395644283121598
5.58    0.08395644283121598
5.61    0.0953901996370236
5.64    0.10715063520871144
5.67    0.1192377495462795
5.7    0.13099818511796735
5.73    0.14243194192377498
5.76    0.15353901996370237
5.79    0.16399274047186935
5.82    0.17346642468239565
5.85    0.18196007259528132
5.88    0.18196007259528132
5.91    0.18947368421052632
5.94    0.19568058076225048
5.97    0.20025408348457352
6.0    0.2038475499092559
6.03    0.2058076225045372
6.06    0.20646098003629765
6.09    0.205480943738657
6.12    0.20286751361161526
6.15    0.19927404718693287
6.18    0.19927404718693287
6.21    0.19372050816696917
6.24    0.1871869328493648
6.27    0.1793466424682396
6.3    0.17019963702359348
6.33    0.16039927404718696
6.36    0.14961887477313976
6.39    0.13818511796733213
6.42    0.1260980036297641
6.45    0.11401088929219602
6.48    0.11401088929219602
6.51    0.10192377495462795
6.54    0.09016333938294012
6.57    0.0790562613430127
6.6    0.06827586206896552
6.63    0.058802177858439206
6.66    0.05030852994555354
6.69    0.04312159709618875
6.72    0.03756805807622505
6.75    0.033647912885662434
6.78    0.033647912885662434
6.81    0.03136116152450091
6.84    0.031034482758620693
6.87    0.032341197822141565
6.9    0.03528130671506352
6.93    0.039854809437386576
6.96    0.045735027223230494
6.99    0.053248638838475505
7.02    0.062068965517241385
7.05    0.07186932849364792
7.08    0.07186932849364792
7.11    0.08264972776769511
7.14    0.09408348457350273
7.17    0.10551724137931036
7.2    0.11760435571687841
7.23    0.12936479128856626
7.26    0.14079854809437387
7.29    0.15190562613430128
7.32    0.16235934664246826
7.35    0.17183303085299456
7.38    0.17183303085299456
7.41    0.18032667876588024
7.44    0.18784029038112524
7.47    0.1940471869328494
7.5    0.19894736842105265
7.53    0.20254083484573504
7.56    0.20482758620689656
7.59    0.205480943738657
7.62    0.20450090744101634
7.65    0.20221415607985482
7.68    0.20221415607985482
7.71    0.19862068965517243
7.74    0.19339382940108896
7.77    0.1871869328493648
7.8    0.1793466424682396
7.83    0.1705263157894737
7.86    0.16072595281306717
7.89    0.1502722323049002
7.92    0.13883847549909256
7.95    0.12707803992740474
7.98    0.12707803992740474
8.01    0.11499092558983667
8.04    0.10323049001814882
8.07    0.09147005444646099
8.1    0.08003629764065337
8.13    0.06958257713248639
8.16    0.060108892921960075
8.19    0.05161524500907441
8.22    0.04475499092558984
8.25    0.03887477313974592
8.28    0.03887477313974592
8.31    0.0349546279491833
8.34    0.03266787658802178
8.37    0.03201451905626135
8.4    0.03332123411978222
8.43    0.03593466424682396
8.46    0.04050816696914701
8.49    0.046715063520871146
8.52    0.05390199637023594
8.55    0.06272232304900183
8.58    0.06272232304900183
8.61    0.07252268602540836
8.64    0.08297640653357533
8.67    0.09408348457350273
8.7    0.10584392014519058
8.73    0.11760435571687841
8.76    0.12903811252268604
8.79    0.14047186932849365
8.82    0.15157894736842106
8.85    0.16203266787658804
8.88    0.16203266787658804
8.91    0.17150635208711434
8.94    0.18032667876588024
8.97    0.18784029038112524
9.0    0.1940471869328494
9.03    0.19894736842105265
9.06    0.20254083484573504
9.09    0.20482758620689656
9.12    0.2058076225045372
9.15    0.20482758620689656
9.18    0.20482758620689656
9.21    0.20286751361161526
9.24    0.19927404718693287
9.27    0.1943738656987296
9.3    0.18784029038112524
9.33    0.18032667876588024
9.36    0.17150635208711434
9.39    0.16203266787658804
9.42    0.15157894736842106
9.45    0.14014519056261343
9.48    0.14014519056261343
9.51    0.12871143375680583
9.54    0.11662431941923776
9.57    0.10486388384754992
9.6    0.09310344827586207
9.63    0.08166969147005446
9.66    0.07121597096188749
9.69    0.06174228675136117
9.72    0.053248638838475505
9.75    0.04606170598911071
9.78    0.04606170598911071
9.81    0.04050816696914701
9.84    0.03626134301270418
9.87    0.03397459165154265
9.9    0.032994555353902
9.93    0.03397459165154265
9.96    0.036914700544464614
9.99    0.041161524500907445
10.02    0.046715063520871146
10.05    0.05390199637023594
10.08    0.05390199637023594
10.11    0.0623956442831216
10.14    0.07186932849364792
10.17    0.08232304900181489
10.2    0.09310344827586207
10.23    0.10453720508166969
10.26    0.11597096188747733
10.29    0.12773139745916517
10.32    0.13883847549909256
10.35    0.14961887477313976
10.38    0.14961887477313976
10.41    0.16007259528130674
10.44    0.16954627949183304
10.47    0.17803992740471872
10.5    0.18555353901996371
10.53    0.19208711433756806
10.56    0.19698729582577135
10.59    0.20090744101633395
10.62    0.20319419237749548
10.65    0.20417422867513613
10.68    0.20417422867513613
10.71    0.2035208711433757
10.74    0.2015607985480944
10.77    0.19829401088929222
10.8    0.19339382940108896
10.83    0.1871869328493648
10.86    0.18000000000000002
10.89    0.17150635208711434
10.92    0.16203266787658804
10.95    0.15157894736842106
10.98    0.15157894736842106
11.01    0.14047186932849365
11.04    0.12903811252268604
11.07    0.11695099818511798
11.1    0.10519056261343014
11.13    0.09375680580762251
11.16    0.08232304900181489
11.19    0.07186932849364792
11.22    0.0623956442831216
11.25    0.05390199637023594
11.28    0.05390199637023594
11.31    0.046715063520871146
11.34    0.04083484573502723
11.37    0.0365880217785844
11.4    0.03397459165154265
11.43    0.03332123411978222
11.46    0.03397459165154265
11.49    0.0365880217785844
11.52    0.04083484573502723
11.55    0.04638838475499093
11.58    0.04638838475499093
11.61    0.05357531760435572
11.64    0.06174228675136117
11.67    0.07121597096188749
11.7    0.08134301270417424
11.73    0.09212341197822142
11.76    0.10355716878402904
11.79    0.11499092558983667
11.82    0.1264246823956443
11.85    0.1378584392014519
11.88    0.1378584392014519
11.91    0.14896551724137932
11.94    0.1590925589836661
11.97    0.1688929219600726
12.0    0.17738656987295828
12.03    0.1852268602540835
12.06    0.19176043557168784
12.09    0.19666061705989113
12.12    0.20058076225045374
12.15    0.20286751361161526
12.18    0.20286751361161526
12.21    0.2038475499092559
12.24    0.2035208711433757
12.27    0.2015607985480944
12.3    0.19829401088929222
12.33    0.19339382940108896
12.36    0.18751361161524502
12.39    0.18000000000000002
12.42    0.17183303085299456
12.45    0.16235934664246826
12.48    0.16235934664246826
12.51    0.15190562613430128
12.54    0.14112522686025408
12.57    0.12969147005444648
12.6    0.11793103448275863
12.63    0.10584392014519058
12.66    0.09441016333938294
12.69    0.08330308529945554
12.72    0.07284936479128858
12.75    0.06304900181488204
12.78    0.06304900181488204
12.81    0.054555353901996374
12.84    0.04704174228675136
12.87    0.04148820326678766
12.9    0.03724137931034483
12.93    0.03430127041742287
12.96    0.03332123411978222
12.99    0.03430127041742287
13.02    0.0365880217785844
13.05    0.04050816696914701
13.08    0.04050816696914701
13.11    0.04606170598911071
13.14    0.05292196007259529
13.17    0.061088929219600734
13.2    0.07056261343012704
13.23    0.08036297640653359
13.26    0.09114337568058077
13.29    0.10257713248638839
13.32    0.11401088929219602
13.35    0.12544464609800365
13.38    0.12544464609800365
13.41    0.13687840290381126
13.44    0.14765880217785846
13.47    0.1581125226860254
13.5    0.16758620689655174
13.53    0.17640653357531763
13.56    0.18392014519056263
13.59    0.19045372050816697
13.62    0.19568058076225048
13.65    0.19960072595281309
13.68    0.19960072595281309
13.71    0.20221415607985482
13.74    0.2035208711433757
13.77    0.20319419237749548
13.8    0.2015607985480944
13.83    0.19862068965517243
13.86    0.1940471869328494
13.89    0.18816696914700545
13.92    0.1813067150635209
13.95    0.1728130671506352
13.98    0.1728130671506352
14.01    0.16366606170598913
14.04    0.15353901996370237
14.07    0.1427586206896552
14.1    0.13132486388384756
14.13    0.11989110707803993
14.16    0.1081306715063521
14.19    0.09669691470054448
14.22    0.08558983666061706
14.25    0.0751361161524501
14.28    0.0751361161524501
14.31    0.06533575317604357
14.34    0.0568421052631579
14.37    0.04965517241379311
14.4    0.043774954627949184
14.43    0.039201451905626135
14.46    0.0365880217785844
14.49    0.03528130671506352
14.52    0.03593466424682396
14.55    0.03822141560798548
14.58    0.03822141560798548
14.61    0.04181488203266788
14.64    0.04704174228675136
14.67    0.05390199637023594
14.7    0.06174228675136117
14.73    0.07088929219600726
14.76    0.0806896551724138
14.79    0.09114337568058077
14.82    0.10225045372050817
14.85    0.1136842105263158
14.88    0.1136842105263158
14.91    0.1251179673321234
14.94    0.13622504537205082
14.97    0.14700544464609802
15.0    0.15713248638838476
15.03    0.1669328493647913
15.06    0.17542649727767695
15.09    0.18294010889292198
15.12    0.18947368421052632
15.15    0.19470054446460983
15.18    0.19470054446460983
15.21    0.19862068965517243
15.24    0.20123411978221417
15.27    0.20254083484573504
15.3    0.20221415607985482
15.33    0.20058076225045374
15.36    0.19764065335753178
15.39    0.19339382940108896
15.42    0.18751361161524502
15.45    0.18065335753176046
15.48    0.18065335753176046
15.51    0.172486388384755
15.54    0.1633393829401089
15.57    0.15353901996370237
15.6    0.1427586206896552
15.63    0.13165154264972778
15.66    0.11989110707803993
15.69    0.10845735027223231
15.72    0.0970235934664247
15.75    0.08591651542649728
15.78    0.08591651542649728
15.81    0.07546279491833031
15.84    0.06566243194192378
15.87    0.05716878402903812
15.9    0.04965517241379311
15.93    0.043774954627949184
15.96    0.03952813067150635
15.99    0.0365880217785844
16.02    0.03528130671506352
16.05    0.035607985480943745
16.08    0.035607985480943745
16.11    0.037894736842105266
16.14    0.04148820326678766
16.17    0.046715063520871146
16.2    0.053248638838475505
16.23    0.061088929219600734
16.26    0.0699092558983666
16.29    0.07970961887477315
16.32    0.09016333938294012
16.35    0.10127041742286752
16.38    0.10127041742286752
16.41    0.11237749546279492
16.44    0.12381125226860255
16.47    0.13491833030852995
16.5    0.14569872958257715
16.53    0.1558257713248639
16.56    0.16529945553539022
16.59    0.17411978221415608
16.62    0.18196007259528132
16.65    0.18849364791288567
16.68    0.18849364791288567
16.71    0.1940471869328494
16.74    0.19829401088929222
16.77    0.20090744101633395
16.8    0.20221415607985482
16.83    0.20221415607985482
16.86    0.20058076225045374
16.89    0.19764065335753178
16.92    0.19339382940108896
16.95    0.18784029038112524
16.98    0.18784029038112524
17.01    0.18098003629764067
17.04    0.1728130671506352
17.07    0.16399274047186935
17.1    0.15386569872958258
17.13    0.14341197822141563
17.16    0.13230490018148822
17.19    0.12054446460980037
17.22    0.10911070780399275
17.25    0.09767695099818513
17.28    0.09767695099818513
17.31    0.08656987295825772
17.34    0.07611615245009075
17.37    0.06631578947368422
17.4    0.057822141560798554
17.43    0.05030852994555354
17.46    0.044428312159709625
17.49    0.039854809437386576
17.52    0.036914700544464614
17.55    0.035607985480943745
17.58    0.035607985480943745
17.61    0.03593466424682396
17.64    0.037894736842105266
17.67    0.04148820326678766
17.7    0.04638838475499093
17.73    0.05292196007259529
17.76    0.06043557168784029
17.79    0.06925589836660617
17.82    0.0790562613430127
17.85    0.08950998185117968
17.88    0.08950998185117968
17.91    0.10029038112522687
17.94    0.11172413793103449
17.97    0.1228312159709619
18.0    0.1339382940108893
18.03    0.1447186932849365
18.06    0.15484573502722324
18.09    0.16431941923774956
18.12    0.17313974591651543
18.15    0.18098003629764067
18.18    0.18098003629764067
18.21    0.18784029038112524
18.24    0.19339382940108896
18.27    0.19764065335753178
18.3    0.20058076225045374
18.33    0.2018874773139746
18.36    0.20221415607985482
18.39    0.20090744101633395
18.42    0.197967332123412
18.45    0.1940471869328494
18.48    0.1940471869328494
18.51    0.1888203266787659
18.54    0.18196007259528132
18.57    0.1744464609800363
18.6    0.16529945553539022
18.63    0.1558257713248639
18.66    0.14504537205081672
18.69    0.13426497277676952
18.72    0.1228312159709619
18.75    0.11139745916515427
18.78    0.11139745916515427
18.81    0.09996370235934665
18.84    0.08885662431941925
18.87    0.07840290381125227
18.9    0.06892921960072595
18.93    0.060108892921960075
18.96    0.05259528130671507
18.99    0.04638838475499093
19.02    0.04181488203266788
19.05    0.0385480943738657
19.08    0.0385480943738657
19.11    0.03724137931034483
19.14    0.03724137931034483
19.17    0.039201451905626135
19.2    0.042468239564428314
19.23    0.04736842105263158
19.26    0.05357531760435572
19.29    0.061088929219600734
19.32    0.06958257713248639
19.35    0.0790562613430127
19.38    0.0790562613430127
19.41    0.08918330308529947
19.44    0.09996370235934665
19.47    0.11074410163339383
19.5    0.12185117967332125
19.53    0.13263157894736843
19.56    0.14341197822141563
19.59    0.15353901996370237
19.62    0.1630127041742287
19.65    0.17183303085299456
19.68    0.17183303085299456
19.71    0.1796733212341198
19.74    0.18620689655172415
19.77    0.19176043557168784
19.8    0.1960072595281307
19.83    0.19927404718693287
19.86    0.20058076225045374
19.89    0.20090744101633395
19.92    0.1999274047186933
19.95    0.19731397459165156
19.98    0.19731397459165156
20.01    0.19339382940108896
20.04    0.18816696914700545
20.07    0.1816333938294011
20.1    0.17379310344827587
20.13    0.16497277676951
20.16    0.15549909255898367
20.19    0.14504537205081672
20.22    0.13426497277676952
20.25    0.1228312159709619
20.28    0.1228312159709619
20.31    0.11172413793103449
20.34    0.10029038112522687
20.37    0.08918330308529947
20.4    0.0790562613430127
20.43    0.06925589836660617
20.46    0.060762250453720516
20.49    0.053248638838475505
20.52    0.04704174228675136
20.55    0.0421415607985481
20.58    0.0421415607985481
20.61    0.03887477313974592
20.64    0.03756805807622505
20.67    0.03724137931034483
20.7    0.03887477313974592
20.73    0.0421415607985481
20.76    0.04704174228675136
20.79    0.053248638838475505
20.82    0.06043557168784029
20.85    0.06892921960072595
20.88    0.06892921960072595
20.91    0.07840290381125227
20.94    0.08852994555353903
20.97    0.09931034482758622
21.0    0.1100907441016334
21.03    0.12087114337568058
21.06    0.13165154264972778
21.09    0.14210526315789473
21.12    0.1522323049001815
